# https://www.engineeringtoolbox.com/water-density-specific-weight-d_595.html
# Temp. (C), Density (kg/m^3)
0.01,999.85
1,999.90
4,999.97
10,999.70
15,999.10
20,998.21
25,997.05
30,995.65
35,994.03
40,992.22
45,990.21
50,988.04
55,985.69
60,983.20
65,980.55
70,977.76
75,974.84
80,971.79
85,968.61
90,965.31
95,961.89
100,958.35
